Temperature,Humidity,Light,CO2,HumidityRatio,Occupancy
19.38435206300067,26.370899497688704,1.6902248104318928e-36,456.9916882989471,0.003666198618665169,5.613687722451972e-262
19.381801502867724,26.35764393519018,6.308688584952017e-37,457.0725997878814,0.0036643651625403494,9.487597487094567e-262
19.379478120615154,26.346600535089106,1.3796148971889448e-36,456.85651420602676,0.003662750908399109,1.216091627619856e-261
19.376980086587043,26.335557134988026,3.4193749147565367e-37,456.8588334900161,0.0036610209515297093,1.4005727792822973e-261
19.37483100966533,26.32451373488695,1.1076867668702112e-36,456.8800653767895,0.0036591570345007344,1.527880062863346e-261
19.372688460616036,26.313470334785872,3.844647955734789e-37,456.8735877160492,0.003657356917552097,1.6157326391657797e-261
19.370719639924033,26.3024269346848,1.1015182594874536e-36,456.87145373482275,0.0036555741202511233,1.676358197624588e-261
19.368824603197915,26.29138353458372,4.895949593361901e-37,456.872613466207,0.003653781218797997,1.7181948573235543e-261
19.367040430136875,26.280340134482643,1.0695125811322022e-36,456.87263946684067,0.0036519821490146966,1.7470656197422848e-261
19.36533648195521,26.269296734381566,5.330760900301128e-37,456.872467601832,0.0036501864977014466,1.7669888384848024e-261
19.36371695071739,26.258253334280493,1.0172399496625514e-36,456.87249530137757,0.0036483919021109276,1.7807375105602127e-261
19.36216956154502,26.247209934179413,5.666370648766167e-37,456.8725125329745,0.003646596613994225,1.7902252337178054e-261
19.36069108226301,26.236166534078336,9.796706233435745e-37,456.8725052259597,0.0036448010275297676,1.7967725489946107e-261
19.359274539348732,26.22512313397726,6.0118385159461665e-37,456.8725042768123,0.0036430056356333636,1.8012907391464368e-261
19.357915526465074,26.214079733876186,9.503348025615839e-37,456.8725054424283,0.0036412103021492338,1.804408664797639e-261
19.35660900318683,26.203036333775106,6.299974031047862e-37,456.8725053395219,0.0036394149248687316,1.8065602918960457e-261
19.355350837436024,26.19199293367403,9.244087831064085e-37,456.87250520078277,0.0036376195328650337,1.8080450929107248e-261
19.35413698837361,26.180949533572953,6.535925052894174e-37,456.87250524173874,0.003635824152226269,1.8090697286642083e-261
19.352963869049816,26.16990613347188,9.023432007497585e-37,456.87250525247146,0.003634028774655462,1.8097768122511251e-261
19.351828124813338,26.1588627333708,6.7366600514801185e-37,456.87250524479657,0.0036322333944105636,1.8102647585258743e-261
19.350726706200035,26.147819333269723,8.83869532591499e-37,456.87250524484193,0.0036304380134392807,1.8106014818941536e-261
19.34965679815217,26.136775933168646,6.907013870935966e-37,456.8725052458731,0.003628642633137317,1.8108338489243223e-261
19.348615823650466,26.125732533067573,8.682634554256994e-37,456.8725052456645,0.003626847252990482,1.81099420143263e-261
19.347601412855557,26.114689132966493,7.050647227885702e-37,456.87250524556543,0.003625051872683351,1.8111048579526273e-261
19.346611391814474,26.103645732865417,8.550584544557348e-37,456.8725052456132,0.0036232564923409246,1.8111812201221196e-261
19.345643763601004,26.09260233276434,7.171920743227263e-37,456.8725052456173,0.0036214611120379226,1.8112339163476083e-261
19.34469669523092,26.081558932663267,8.439058402713737e-37,456.87250524560994,0.00361966573174248,1.811270281110412e-261
19.343768503540034,26.070515532562187,7.274413441511975e-37,456.87250524561085,0.003617870351437538,1.8112953758104877e-261
19.34285764326893,26.05947213246111,8.34486763259641e-37,456.87250524561165,0.00361607497113093,1.811312693233271e-261
19.34196269559956,26.048428732360033,7.360999726825651e-37,456.8725052456114,0.0036142795908266365,1.8113246436901785e-261
19.341082357891167,26.03738533225896,8.26529101516846e-37,456.8725052456113,0.003612484210522695,1.8113328904958425e-261
19.340215434126467,26.02634193215788,7.434139905792396e-37,456.8725052456114,0.0036106888302181958,1.8113385814752074e-261
19.33936082620467,26.015298532056804,8.198064252916228e-37,456.8725052456114,0.0036088934499136213,1.811342508722611e-261
19.33851752591503,26.004255131955727,7.495927436452148e-37,456.8725052456114,0.003607098069609182,1.811345218848791e-261
19.33768460758356,25.993211731854654,8.14127372924538e-37,456.8725052456114,0.0036053026893047586,1.8113470890604581e-261
19.33686122131366,25.982168331753574,7.548124835908366e-37,456.8725052456114,0.003603507309000302,1.8113483796615028e-261
19.336046586784096,25.971124931652497,8.093298547761451e-37,456.8725052456114,0.003601711928695842,1.8113492702831824e-261
19.33523998755271,25.96008153155142,7.592219863999497e-37,456.8725052456114,0.0035999165483913903,1.811349884885952e-261
19.334440765827424,25.949038131450347,8.052770054368788e-37,456.8725052456114,0.00359812116808694,1.8113503090127984e-261
19.333648317664803,25.937994731349267,7.629470259182364e-37,456.8725052456114,0.0035963257877824864,1.8113506016954721e-261
19.332862088561967,25.92695133124819,8.018532513168206e-37,456.8725052456114,0.0035945304074780334,1.811350803670773e-261
19.332081569409183,25.915907931147114,7.660938565832624e-37,456.8725052456114,0.0035927350271735808,1.8113509430504695e-261
19.331306292773867,25.90486453104604,7.989609443745324e-37,456.8725052456114,0.003590939646869128,1.8113510392340112e-261
19.33053582948879,25.89382113094496,7.687522275812103e-37,456.8725052456114,0.0035891442665646756,1.8113511056086262e-261
19.32976978551957,25.882777730843884,7.965175895200791e-37,456.8725052456114,0.0035873488862602225,1.8113511514126113e-261
19.329007799088565,25.871734330742807,7.709979580289338e-37,456.8725052456114,0.00358555350595577,1.811351183021157e-261
19.328249538034285,25.860690930641734,7.944534991335354e-37,456.8725052456114,0.0035837581256513173,1.8113512048336732e-261
19.327494697386904,25.849647530540654,7.728950995958543e-37,456.8725052456114,0.003581962745346864,1.811351219886117e-261
19.326742997142304,25.838604130439577,7.927098029634019e-37,456.8725052456114,0.003580167365042411,1.8113512302735507e-261
19.325994180218263,25.827560730338504,7.744977613501702e-37,456.8725052456114,0.0035783719847379586,1.811351237441741e-261
19.325248010578054,25.816517330237428,7.912367684400594e-37,456.8725052456114,0.003576576604433506,1.8113512423883862e-261
19.324504271507575,25.80547393013635,7.758516532500043e-37,456.8725052456114,0.0035747812241290534,1.8113512458019815e-261
19.323762764033546,25.79443053003527,7.899923826382157e-37,456.8725052456114,0.0035729858438246003,1.811351248157645e-261
19.323023305471207,25.783387129934198,7.76995390077834e-37,456.8725052456114,0.0035711904635201477,1.811351249783248e-261
19.322285728090876,25.77234372983312,7.889411540430375e-37,456.8725052456114,0.003569395083215695,1.8113512509050489e-261
19.321549877893712,25.761300329732045,7.779615927274397e-37,456.8725052456114,0.003567599702911242,1.8113512516791844e-261
19.32081561348763,25.750256929630964,7.88053100230212e-37,456.8725052456114,0.0035658043226067895,1.811351252213402e-261
19.320082805055318,25.73921352952989,7.787778185731733e-37,456.8725052456114,0.0035640089423023364,1.8113512525820566e-261
19.319351333406658,25.728170129428815,7.873028927306532e-37,456.8725052456114,0.003562213561997884,1.8113512528364588e-261
19.31862108910879,25.717126729327738,7.794673474527478e-37,456.8725052456114,0.0035604181816934312,1.8113512530120174e-261
19.31789197168732,25.706083329226658,7.866691346357862e-37,456.8725052456114,0.003558622801388978,1.8113512531331674e-261
19.317163888892974,25.695039929125585,7.800498456404569e-37,456.8725052456114,0.0035568274210845256,1.8113512532167709e-261
19.316436756028267,25.68399652902451,7.861337503282411e-37,456.8725052456114,0.003555032040780073,1.8113512532744642e-261
19.315710495329284,25.67295312892343,7.805419267538022e-37,456.8725052456114,0.00355323666047562,1.8113512533142773e-261
19.31498503539808,25.66190972882235,7.856814699406807e-37,456.8725052456114,0.0035514412801711673,1.8113512533417517e-261
19.31426031068157,25.65086632872128,7.809576255957933e-37,456.8725052456114,0.0035496458998667147,1.8113512533607112e-261
19.313536260992986,25.6398229286202,7.852993938392671e-37,456.8725052456114,0.003547850519562262,1.8113512533737948e-261
19.312812831072662,25.628779528519125,7.813087984462495e-37,456.8725052456114,0.003546055139257809,1.8113512533828237e-261
19.312089970184616,25.617736128418045,7.849766247091323e-37,456.8725052456114,0.003544259758953356,1.8113512533890543e-261
19.31136763174627,25.606692728316972,7.81605461218532e-37,456.8725052456114,0.0035424643786489034,1.811351253393354e-261
19.310645772988412,25.595649328215895,7.84703956748531e-37,456.8725052456114,0.003540668998344451,1.8113512533963211e-261
19.309924354643055,25.58460592811482,7.818560751265949e-37,456.8725052456114,0.0035388736180399978,1.8113512533983687e-261
19.30920334065679,25.57356252801374,7.844736131072178e-37,456.8725052456114,0.003537078237735545,1.8113512533997817e-261
19.308482697927648,25.562519127912665,7.820677880099845e-37,456.8725052456114,0.0035352828574310925,1.8113512534007567e-261
19.30776239606347,25.55147572781159,7.842790240804156e-37,456.8725052456114,0.00353348747712664,1.8113512534014296e-261
19.3070424071601,25.540432327710512,7.822466381996635e-37,456.8725052456114,0.0035316920968221873,1.811351253401894e-261
19.306322705597672,25.529388927609432,7.841146397321618e-37,456.8725052456114,0.003529896716517734,1.8113512534022144e-261
19.305603267853662,25.51834552750836,7.823977267391801e-37,456.8725052456114,0.0035281013362132812,1.8113512534024356e-261
19.304884072331145,25.507302127407282,7.839757716038043e-37,456.8725052456114,0.0035263059559088286,1.811351253402588e-261
19.30416509920119,25.496258727306206,7.825253628731658e-37,456.8725052456114,0.0035245105756043756,1.8113512534026935e-261
19.303446330258115,25.485215327205125,7.83858458992973e-37,456.8725052456114,0.003522715195299923,1.8113512534027661e-261
19.302727748786605,25.474171927104052,7.826331869526823e-37,456.8725052456114,0.0035209198149954704,1.8113512534028162e-261
19.302009339439717,25.463128527002976,7.83759355989117e-37,456.8725052456114,0.0035191244346910178,1.8113512534028508e-261
19.30129108812684,25.4520851269019,7.82724274262839e-37,456.8725052456114,0.003517329054386565,1.8113512534028747e-261
19.30057298191086,25.44104172680082,7.836756360437194e-37,456.8725052456114,0.003515533674082112,1.8113512534028911e-261
19.299855008913752,25.429998326699746,7.828012227339856e-37,456.8725052456114,0.003513738293777659,1.8113512534029024e-261
19.299137158229833,25.41895492659867,7.836049113534002e-37,456.8725052456114,0.0035119429134732065,1.8113512534029103e-261
19.298419419846205,25.407911526497593,7.828662270381154e-37,456.8725052456114,0.0035101475331687534,1.8113512534029157e-261
19.297701784569647,25.396868126396512,7.835451647566128e-37,456.8725052456114,0.003508352152864301,1.8113512534029196e-261
19.29698424395953,25.38582472629544,7.829211411838084e-37,456.8725052456114,0.003506556772559848,1.811351253402922e-261
19.296266790266184,25.374781326194363,7.834946922015327e-37,456.8725052456114,0.0035047613922553956,1.8113512534029239e-261
19.295549416374364,25.363737926093286,7.829675313950041e-37,456.8725052456114,0.003502966011950943,1.811351253402925e-261
19.29483211575129,25.352694525992206,7.83452054144249e-37,456.8725052456114,0.00350117063164649,1.811351253402926e-261
19.294114882398983,25.341651125891133,7.830067207817752e-37,456.8725052456114,0.0034993752513420373,1.8113512534029266e-261
19.29339771081046,25.330607725790056,7.834160344910723e-37,456.8725052456114,0.0034975798710375847,1.811351253402927e-261
19.292680595929564,25.31956432568898,7.830398270771747e-37,456.8725052456114,0.0034957844907331313,1.8113512534029273e-261
19.291963533114057,25.3085209255879,7.833856059139365e-37,456.8725052456114,0.0034939891104286787,1.8113512534029275e-261
19.291246518101712,25.297477525486826,7.830677945164585e-37,456.8725052456114,0.003492193730124226,1.8113512534029277e-261
19.29052954697923,25.28643412538575,7.833599005496468e-37,456.8725052456114,0.0034903983498197734,1.8113512534029277e-261
19.289812616153668,25.275390725284673,7.830914207679205e-37,456.8725052456114,0.003488602969515321,1.8113512534029277e-261
19.2890957223262,25.264347325183593,7.833381852472743e-37,456.8725052456114,0.003486807589210868,1.8113512534029277e-261
19.288378862468058,25.25330392508252,7.83111379683447e-37,456.8725052456114,0.003485012208906415,1.8113512534029277e-261
19.287662033798423,25.242260524981443,7.83319840657724e-37,456.8725052456114,0.0034832168286019626,1.8113512534029277e-261
19.28694523376411,25.231217124880366,7.831282405176603e-37,456.8725052456114,0.0034814214482975095,1.8113512534029277e-261
19.28622846002096,25.22017372477929,7.833043435690814e-37,456.8725052456114,0.0034796260679930565,1.8113512534029277e-261
19.285511710416692,25.209130324678213,7.83142484163814e-37,456.8725052456114,0.003477830687688604,1.8113512534029277e-261
19.284794982975242,25.198086924577137,7.832912519839175e-37,456.8725052456114,0.0034760353073841513,1.8113512534029277e-261
19.28407827588229,25.18704352447606,7.831545168695027e-37,456.8725052456114,0.0034742399270796987,1.8113512534029277e-261
19.28336158747205,25.176000124374983,7.832801925129385e-37,456.8725052456114,0.0034724445467752456,1.8113512534029277e-261
19.282644916215112,25.164956724273907,7.831646818233793e-37,456.8725052456114,0.003470649166470793,1.8113512534029277e-261
19.28192826070725,25.153913324172834,7.832708497254296e-37,456.8725052456114,0.0034688537861663404,1.8113512534029277e-261
19.281211619659206,25.142869924071753,7.831732689433496e-37,456.8725052456114,0.0034670584058618874,1.8113512534029277e-261
19.280494991887252,25.131826523970677,7.832629571527563e-37,456.8725052456114,0.0034652630255574348,1.8113512534029277e-261
19.279778376304574,25.1207831238696,7.83180523145413e-37,456.8725052456114,0.0034634676452529817,1.8113512534029277e-261
19.279061771913327,25.109739723768527,7.832562896883247e-37,456.8725052456114,0.003461672264948529,1.8113512534029277e-261
19.27834517779734,25.098696323667447,7.831866513289897e-37,456.8725052456114,0.0034598768846440765,1.8113512534029277e-261
19.277628593115463,25.08765292356637,7.832506571672464e-37,456.8725052456114,0.0034580815043396235,1.8113512534029277e-261
19.27691201709538,25.076609523465294,7.831918282779667e-37,456.8725052456114,0.003456286124035171,1.8113512534029277e-261
19.27619544902802,25.06556612336422,7.832458989425832e-37,456.8725052456114,0.0034544907437307182,1.8113512534029277e-261
19.275478888262352,25.05452272326314,7.83196201645764e-37,456.8725052456114,0.003452695363426265,1.8113512534029277e-261
19.274762334200638,25.043479323162064,7.832418793034857e-37,456.8725052456114,0.0034508999831218126,1.8113512534029277e-261
19.274045786294067,25.032435923060987,7.831998961666054e-37,456.8725052456114,0.00344910460281736,1.8113512534029277e-261
19.273329244038774,25.021392522959914,7.832384836045394e-37,456.8725052456114,0.0034473092225129074,1.8113512534029277e-261
19.272612706972115,25.010349122858834,7.832030172131035e-37,456.8725052456114,0.0034455138422084543,1.8113512534029277e-261
19.271896174669344,24.999305722757757,7.83235614995927e-37,456.8725052456114,0.0034437184619040013,1.8113512534029277e-261
19.271179646740475,24.98826232265668,7.832056538016247e-37,456.8725052456114,0.0034419230815995487,1.8113512534029277e-261
19.27046312282744,24.977218922555608,7.832331916611435e-37,456.8725052456114,0.003440127701295096,1.8113512534029277e-261
19.2697466026015,24.966175522454527,7.83207881131155e-37,456.8725052456114,0.003438332320990643,1.8113512534029277e-261
19.269030085760818,24.95513212235345,7.832311444834812e-37,456.8725052456114,0.0034365369406861904,1.8113512534029277e-261
19.268313572028266,24.944088722252374,7.832097627280735e-37,456.8725052456114,0.003434741560381738,1.8113512534029277e-261
19.267597061149402,24.9330453221513,7.832294150747304e-37,456.8725052456114,0.003432946180077285,1.8113512534029277e-261
19.266880552890616,24.92200192205022,7.832113522580085e-37,456.8725052456114,0.0034311507997728326,1.8113512534029277e-261
19.26616404703742,24.910958521949144,7.832279541098701e-37,456.8725052456114,0.003429355419468379,1.8113512534029277e-261
19.26544754339289,24.899915121848068,7.832126950564523e-37,456.8725052456114,0.0034275600391639265,1.8113512534029277e-261
19.264731041776216,24.888871721746995,7.832267199202535e-37,456.8725052456114,0.003425764658859474,1.8113512534029277e-261
19.26401454202139,24.877828321645914,7.832138294217898e-37,456.8725052456114,0.003423969278555021,1.8113512534029277e-261
19.263298043975997,24.866784921544838,7.832256773051631e-37,456.8725052456114,0.0034221738982505683,1.8113512534029277e-261
19.262581547500098,24.85574152144376,7.832147877076178e-37,456.8725052456114,0.0034203785179461156,1.8113512534029277e-261
19.26186505246521,24.844698121342688,7.832247965278402e-37,456.8725052456114,0.003418583137641663,1.8113512534029277e-261
19.26114855875337,24.833654721241608,7.832155972455136e-37,456.8725052456114,0.0034167877573372104,1.8113512534029277e-261
19.260432066256268,24.82261132114053,7.832240524673527e-37,456.8725052456114,0.0034149923770327574,1.8113512534029277e-261
19.25971557487446,24.811567921039455,7.832162811245666e-37,456.8725052456114,0.0034131969967283043,1.8113512534029277e-261
19.258999084516645,24.80052452093838,7.832234239021127e-37,456.8725052456114,0.0034114016164238517,1.8113512534029277e-261
19.258282595099,24.7894811208373,7.832168588499103e-37,456.8725052456114,0.0034096062361193987,1.8113512534029277e-261
19.25756610654456,24.778437720736225,7.832228929046097e-37,456.8725052456114,0.003407810855814946,1.8113512534029277e-261
19.256849618782656,24.767394320635148,7.832173468990344e-37,456.8725052456114,0.0034060154755104935,1.8113512534029277e-261
19.25613313174841,24.756350920534075,7.832224443300942e-37,456.8725052456114,0.003404220095206041,1.8113512534029277e-261
19.255416645382255,24.745307520432995,7.832177591917444e-37,456.8725052456114,0.0034024247149015883,1.8113512534029277e-261
19.2547001596295,24.73426412033192,7.832220653846284e-37,456.8725052456114,0.0034006293345971352,1.8113512534029277e-261
19.25398367443993,24.72322072023084,7.832181074871728e-37,456.8725052456114,0.0033988339542926826,1.8113512534029277e-261
19.253267189767435,24.71217732012977,7.832217452601877e-37,456.8725052456114,0.00339703857398823,1.8113512534029277e-261
19.252550705569696,24.70113392002869,7.832184017191648e-37,456.8725052456114,0.0033952431936837765,1.8113512534029277e-261
19.251834221807847,24.69009051992761,7.832214748264e-37,456.8725052456114,0.003393447813379324,1.8113512534029277e-261
19.251117738446197,24.679047119826535,7.832186502796054e-37,456.8725052456114,0.0033916524330748713,1.8113512534029277e-261
19.25040125545199,24.668003719725462,7.832212463701366e-37,456.8725052456114,0.0033898570527704187,1.8113512534029277e-261
19.249684772795145,24.656960319624382,7.832188602577665e-37,456.8725052456114,0.003388061672465966,1.8113512534029277e-261
19.248968290448044,24.645916919523305,7.832210533755235e-37,456.8725052456114,0.003386266292161513,1.8113512534029277e-261
19.24825180838533,24.63487351942223,7.832190376425027e-37,456.8725052456114,0.0033844709118570604,1.8113512534029277e-261
19.247535326583726,24.623830119321156,7.832208903380994e-37,456.8725052456114,0.003382675531552608,1.8113512534029277e-261
19.246818845021853,24.612786719220075,7.832191874930607e-37,456.8725052456114,0.003380880151248155,1.8113512534029277e-261
19.246102363680084,24.601743319119,7.832207526078217e-37,456.8725052456114,0.0033790847709437018,1.8113512534029277e-261
19.245385882540408,24.590699919017922,7.832193140833762e-37,456.8725052456114,0.003377289390639249,1.8113512534029277e-261
